Temperature    Energy         Energy2        Magnetization  Magnetization2 Heat Capacity  Susceptibility 
2.1            -1.6621617     2.7632064      0.868776       0.75497362     0.96324317     0.96131381     
2.11           -1.6521866     2.7301617      0.86285394     0.7447435      0.99110294     1.0737827      
2.12           -1.6423264     2.6976964      0.85714334     0.73494574     1.0241345      1.1841645      
2.13           -1.6318005     2.6632507      0.85043039     0.72352364     1.0529545      1.3699534      
2.14           -1.6210183     2.6282066      0.84332794     0.7115483      1.1056453      1.6181159      
2.15           -1.609746      2.5918113      0.8357536      0.69887757     1.1444295      1.8302092      
2.16           -1.5979814     2.5540982      0.82731091     0.68490939     1.1862989      2.1576264      
2.17           -1.5860476     2.5161217      0.81842371     0.67035906     1.2203662      2.496243       
2.18           -1.5736675     2.4770353      0.80885768     0.6548912      1.2750203      2.9378621      
2.19           -1.5600732     2.4344715      0.79706004     0.63612428     1.3412294      3.7423403      
2.2            -1.5464106     2.3920778      0.78454376     0.61662198     1.4295554      5.0594016      
2.21           -1.5316581     2.3467117      0.76949069     0.59363073     1.5050213      6.8543427      
2.22           -1.5151114     2.2964286      0.74408619     0.56005068     1.7574474      28.767667      
2.23           -1.5002963     2.2517192      0.73449889     0.54191597     1.6692207      10.884944      
2.24           -1.48239       2.1984044      0.70811734     0.505854       1.8420557      19.749284      
2.25           -1.4632907     2.1422755      0.67174868     0.46105783     2.0854552      43.606863      
2.26           -1.4406214     2.0765812      0.61746503     0.39824121     2.3321844      75.124557      
2.27           -1.4178271     2.01153        0.55331285     0.33529636     2.5157553      128.37552      
2.28           -1.3960114     1.9501128      0.50219283     0.28026564     2.4334679      123.10526      
2.29           -1.3695472     1.8768572      0.39579275     0.1928406      2.2837127      158.02925      
2.3            -1.3478095     1.817691       0.33184567     0.14192528     2.0802874      138.2771       
2.31           -1.3270465     1.7620201      0.25593002     0.092626663    1.8135183      117.43069      
2.32           -1.3109904     1.7195863      0.22446957     0.072721917    1.6543089      96.272977      
2.33           -1.2945266     1.6766308      0.19719463     0.056607921    1.5320853      76.060942      
2.34           -1.2794308     1.6377215      0.1746397      0.04532089     1.4214334      63.341298      
2.35           -1.2655579     1.6023942      0.15329392     0.035497989    1.3716209      51.059415      
2.36           -1.2525734     1.5696657      0.13673015     0.02875553     1.3027749      42.6288        
2.37           -1.2399572     1.5382011      0.13082303     0.025889892    1.2591968      37.026272      
2.38           -1.2269798     1.5061574      0.11323947     0.019815042    1.1970699      29.37758       
2.39           -1.2150148     1.4769223      0.10472912     0.016917547    1.1577188      24.892714      
2.4            -1.2039655     1.4501776      0.097711873    0.014823892    1.1194005      21.984509      
